0.3550597727 0.3935584426 0.4192242026 0.4320570827 0.3678926826 0.3550597727 0.3550597727 0.3293940425 0.3293940425 0.3037282526 0.2908953726 0.2395638525 0.2523967326 0.2267309576 0.2267309576 0.2138980925 0.1882323027 0.1625665426 0.1497336626 0.1369007826 0.1112350002 0.0984021351 0.1112350002 0.1112350002 0.1112350002 0.1240678951 0.1112350002 0.0984021351 0.0727363527 0.0470705926 0.0599034801 0.0599034801 0.0855692402 0.0599034801 0.0470705926 0.0470705926 0.0085719414 0.0085719414 -0.0299266912 -0.0555924699 -0.0812582523 -0.1069239900 -0.0684253424 -0.0940911248 -0.1069239900 -0.1325897723 -0.1710884273 -0.1454226375 -0.1325897723 -0.1197568998 -0.1325897723 -0.1325897723 -0.1197568998 -0.1582555473 -0.1582555473 -0.2095870674 -0.2095870674 -0.2480857223 -0.2224199474 -0.2352528125 -0.2224199474 -0.2352528125 -0.2609185874 -0.2737514675 -0.2737514675 -0.3122501075 -0.2737514675 -0.2352528125 -0.2224199474 -0.1967541575 -0.1839212924 -0.2095870674 -0.1839212924 -0.1839212924 -0.1710884273 -0.1325897723 -0.1325897723 -0.1454226375 -0.1197568998 -0.1197568998 -0.1710884273 -0.1710884273 -0.2224199474 -0.2224199474 -0.2352528125 -0.1967541575 -0.1967541575 -0.1839212924 -0.1967541575 -0.1967541575 -0.1967541575 -0.1710884273 -0.1454226375 -0.1454226375 -0.2095870674 -0.2737514675 -0.3379158974 -0.3122501075 -0.3122501075 -0.3122501075 -0.3379158974 -0.3635816276 -0.3892474473 -0.4149132073 -0.4790776372 -0.5560749173 -0.5945735574 -0.5689077973 -0.4277460575 -0.2224199474 -0.0427596010 0.0599034801 0.1882323027 0.3293940425 0.4962215126 0.6630489230 0.7528792024 0.6502161026 0.4192242026 -0.0940911248 -0.7870668173 -1.5185410976 -2.0446894169 -2.4938404560 -2.9173252583 -3.2766461372 -3.4563064575 -3.5589694977 -3.5204710960 -3.4178080559 -3.2638130188 -3.1354844570 -2.9558241367 -2.6606678963 -2.3270127773 -2.1345195770 -2.0831880569 -2.0831880569 -2.0318565369 -1.9676920176 -1.9163604975 -1.8521959782 -1.7495330572 -1.6340370178 -1.5313739777 -1.3902124166 -1.3132150173 -1.1848860979 -1.0822231770 -1.0052257776 -0.8897298574 -0.8127325773 -0.7100695372 -0.6330722570 -0.5047433972 -0.3764145076 -0.2095870674 -0.0940911248 0.0727363527 0.2010651976 0.2652296126 0.2780624926 0.3165611327 0.3807255626 0.4448899925 0.5090543628 0.5218873024 0.5347201824 0.5860517025 0.5860517025 0.6373832226 0.6887147427 0.7015476227 0.6887147427 0.7657120824 0.7785449624 0.8298764229 0.8683751225 0.9068738222 0.9068738222 0.9582052827 0.9967039824 1.0480355024 1.0480355024 1.0737012625 1.0737012625 1.0865341425 1.1378656626 1.1121999025 1.0993670225 1.1121999025 1.1121999025 1.1891971827 1.2276958227 1.2533615828 1.2661944628 1.2661944628 1.2405287027 1.2661944628 1.2918602228 1.3560247421 1.3431918621 1.3303589821 1.3303589821 1.3431918621 1.3303589821 1.3560247421 1.3175261021 1.3303589821 1.2918602228 1.3046931028 1.3175261021 1.2918602228 1.2790273428 1.2148629427 1.2148629427 1.2148629427 1.2020300627 1.1378656626 1.0737012625 1.0223697424 0.9453724027 0.9453724027 0.9453724027 0.9453724027 0.9068738222 0.8427093029 0.7528792024 0.7272134423 0.7143805027 0.6758818030 0.6630489230 0.6758818030 0.6373832226 0.5603858829 0.5090543628 0.4063912928 0.3422269225 0.2780624926 0.2395638525 0.2395638525 0.2267309576 0.2010651976 0.1882323027 0.1240678951 0.0342377201 0.0984021351 0.1112350002 0.0855692402 0.0727363527 0.0214048307 -0.0299266912 -0.0042609298 0.0085719414 -0.0170938205 -0.0812582523
-0.1873690486 -0.2513812482 -0.2300438732 -0.2300438732 -0.2727186382 -0.2300438732 -0.1873690486 -0.1446942389 -0.0593446605 -0.0593446605 -0.0806820393 -0.1873690486 -0.2300438732 -0.2087064236 -0.1446942389 -0.1233568564 -0.1233568564 -0.1660316736 -0.1020194814 -0.1233568564 -0.1020194814 -0.0806820393 -0.0806820393 -0.1660316736 -0.2940559983 -0.3367308080 -0.2727186382 -0.2300438732 -0.1660316736 -0.1873690486 -0.1446942389 -0.1873690486 -0.1660316736 -0.1873690486 -0.1873690486 -0.1873690486 -0.1873690486 -0.2513812482 -0.2727186382 -0.2300438732 -0.2300438732 -0.2300438732 -0.2087064236 -0.3153934479 -0.3580681980 -0.3153934479 -0.3153934479 -0.3580681980 -0.3794056475 -0.3580681980 -0.3153934479 -0.2087064236 -0.1446942389 -0.0806820393 -0.0806820393 -0.0380072817 -0.0593446605 -0.0380072817 -0.0166698415 0.0260049440 0.0473423228 0.0686797276 0.0900171399 0.1113545150 0.1326919198 0.0686797276 -0.0593446605 -0.2087064236 -0.2300438732 -0.2300438732 -0.2300438732 -0.1660316736 -0.2087064236 -0.2087064236 -0.2087064236 -0.1660316736 -0.1660316736 -0.1660316736 -0.2087064236 -0.1660316736 -0.1446942389 -0.1233568564 -0.1020194814 -0.1233568564 -0.1446942389 -0.1446942389 -0.1233568564 -0.0806820393 -0.1020194814 -0.1020194814 -0.2513812482 -0.3153934479 -0.3153934479 -0.2940559983 -0.2727186382 -0.2727186382 -0.2940559983 -0.3153934479 -0.2940559983 -0.2513812482 -0.2087064236 -0.2087064236 -0.1233568564 -0.1873690486 -0.1873690486 -0.1660316736 -0.1020194814 -0.1446942389 -0.1660316736 -0.2087064236 -0.1873690486 -0.1873690486 -0.2513812482 -0.3794056475 -0.4220803976 -0.2727186382 0.0046675354 0.3674032986 0.7514764667 1.0715373755 1.4556106329 1.9036959410 2.3091063499 2.6718423367 3.1199276447 3.6320252419 4.1441226006 4.5495328903 5.0616307259 5.2750048637 5.2323298454 4.8269195557 4.2081351280 3.1626024246 1.5622975826 0.0686797276 -0.8915032148 -1.4249382019 -1.6596493721 -1.7663365602 -1.6383121014 -1.3395885229 -1.1048771143 -0.9981902242 -0.9555153251 -0.8915032148 -0.8274909258 -0.7208039165 -0.7421414256 -0.7421414256 -0.8488283157 -0.8915032148 -0.8915032148 -0.8915032148 -0.8488283157 -0.7848162055 -0.7421414256 -0.6567918062 -0.5714421868 -0.4860925972 -0.5074300170 -0.5714421868 -0.6141170263 -0.6567918062 -0.6567918062 -0.6354544163 -0.6141170263 -0.6354544163 -0.6567918062 -0.5501047969 -0.5287674069 -0.4860925972 -0.4647552073 -0.4647552073 -0.4647552073 -0.4860925972 -0.4647552073 -0.4647552073 -0.4434178472 -0.4860925972 -0.4220803976 -0.4434178472 -0.4220803976 -0.3580681980 -0.2940559983 -0.3794056475 -0.4007430077 -0.4860925972 -0.4434178472 -0.4434178472 -0.3794056475 -0.3580681980 -0.3580681980 -0.4007430077 -0.3367308080 -0.2300438732 -0.2513812482 -0.2727186382 -0.2727186382 -0.2940559983 -0.1446942389 -0.0593446605 -0.0166698415 0.0046675354 -0.0166698415 -0.0593446605 -0.0166698415 0.0260049440 0.0046675354 0.0046675354 -0.0806820393 0.0046675354 0.0260049440 0.0046675354 0.0473423228 0.0260049440 -0.0593446605 -0.1020194814 -0.0806820393 -0.0380072817 0.0686797276 0.0900171399 0.1113545150 0.1753667146 0.1326919198 0.1967041194 0.2607163191 0.2393789142 0.2393789142 0.2180414945 0.2393789142 0.2820537090 0.3033910990 0.3247285187 0.2180414945 0.2607163191 0.2607163191 0.2393789142 0.1967041194 0.1967041194 0.1967041194 0.1967041194 0.1967041194 0.1967041194 0.2180414945 0.1540293097 0.1540293097 0.1753667146 0.1540293097 0.2180414945 0.2180414945 0.2393789142 0.2180414945 0.1540293097 0.2180414945 0.2607163191
-0.1605204344 -0.1518234611 -0.1605204344 -0.1779144108 -0.1605204344 -0.1431264877 -0.1518234611 -0.1518234611 -0.1866113842 -0.1518234611 -0.1431264877 -0.1518234611 -0.1344295144 -0.1431264877 -0.1779144108 -0.1953083873 -0.1866113842 -0.1692174375 -0.1257325262 -0.1170355380 -0.1083385646 -0.0822476223 -0.0996415764 -0.0735506341 -0.0474596880 -0.0561566763 -0.0561566763 -0.0648536608 -0.0561566763 -0.0387627110 -0.0300657302 -0.0213687513 -0.0648536608 -0.0474596880 -0.0474596880 -0.0561566763 -0.0735506341 -0.0735506341 -0.0735506341 -0.0735506341 -0.0735506341 -0.0735506341 -0.0648536608 -0.0909446031 -0.0909446031 -0.0822476223 -0.0909446031 -0.0648536608 -0.0648536608 -0.0561566763 -0.0648536608 -0.0909446031 -0.0648536608 -0.0474596880 -0.0561566763 -0.0561566763 -0.0822476223 -0.0909446031 -0.0909446031 -0.0735506341 -0.1083385646 -0.1170355380 -0.1344295144 -0.1431264877 -0.1344295144 -0.1083385646 -0.1170355380 -0.1431264877 -0.1779144108 -0.1779144108 -0.1344295144 -0.0561566763 -0.0648536608 -0.0909446031 -0.1170355380 -0.1344295144 -0.1257325262 -0.1257325262 -0.1605204344 -0.1692174375 -0.1953083873 -0.1605204344 -0.1518234611 -0.1518234611 -0.1779144108 -0.2040053606 -0.2040053606 -0.2040053606 -0.2040053606 -0.1866113842 -0.1605204344 -0.1605204344 -0.1605204344 -0.1431264877 -0.1257325262 -0.0909446031 -0.0561566763 -0.0387627110 -0.0735506341 -0.0648536608 -0.0213687513 0.0395101160 0.0742980391 0.1003889889 0.1003889889 0.1351769120 0.1699648350 0.2047527581 0.2482376546 0.2569346726 0.2308436930 0.2743286192 0.4134803414 0.5265410542 0.5265410542 0.4482682347 0.4134803414 0.3960863352 0.3265104890 0.1264799386 -0.3257631063 -1.0215215683 -1.8303408623 -2.5000083447 -2.9696455002 -3.2305548191 -3.3349187374 -3.4044945240 -3.4305853844 -3.4131913185 -3.3523125648 -3.2479486465 -3.1435849667 -2.9783422947 -2.7261300087 -2.5000083447 -2.2825839520 -2.1521291733 -2.0825533867 -1.9868863821 -1.8564318419 -1.7346739769 -1.5694314241 -1.3780977726 -1.2737339735 -1.1780672073 -1.0910974741 -0.9867337346 -0.8388849497 -0.7432181835 -0.6649453640 -0.6301574707 -0.6127634645 -0.5866725445 -0.5257936716 -0.4649148285 -0.4040359557 -0.2648842335 -0.1518234611 -0.0387627110 0.0569040813 0.1525708884 0.2569346726 0.3265104890 0.3873893619 0.4308742881 0.4656622112 0.5178440809 0.5613289475 0.6309047937 0.6396018267 0.6309047937 0.6743897200 0.7439655662 0.8135414720 0.8831173182 0.8744203448 0.9092082381 0.9439961314 0.9700870514 1.0048750639 1.0396629572 1.0831477642 1.1092388630 1.1440267563 1.1875115633 1.2049055099 1.2396935225 1.2483905554 1.2744814157 1.3092693090 1.3788452148 1.4310271740 1.4658150673 1.4484211206 1.4658150673 1.4919059277 1.5266938210 1.5701788664 1.5527849197 1.5440878868 1.5179969072 1.5092998743 1.5179969072 1.5006029606 1.4571180344 1.4397240877 1.4049360752 1.4223300219 1.4049360752 1.3788452148 1.3092693090 1.2483905554 1.2222995758 1.1788146496 1.1353297234 1.1179357767 1.0831477642 1.0396629572 0.9874809980 0.9266021848 0.8657233119 0.8222384453 0.7613595724 0.6917837262 0.6309047937 0.5700259209 0.5439350009 0.4917531312 0.4221773148 0.3873893619 0.3873893619 0.3699954152 0.3526014686 0.3352074623 0.3091165423 0.2917225659 0.2569346726 0.2308436930 0.1960557848 0.1612678617 0.1264799386 0.0916920081 0.0569040813 0.0829950199 0.0916920081 0.0656010658 0.0308131389 -0.0039747860 -0.0300657302 0.0047221933 0.0569040813 0.0742980391 0.0569040813 0.0221161563 0.0308131389
0.3544581831 0.3747129142 0.3544581831 0.2734391391 0.2734391391 0.2531844079 0.2936939001 0.3544581831 0.3139486611 0.2936939001 0.2329296470 0.2734391391 0.3747129142 0.3544581831 0.2936939001 0.2329296470 0.1924201101 0.2126749009 0.2329296470 0.2329296470 0.1924201101 0.1519106328 0.1114011034 0.1519106328 0.2126749009 0.1924201101 0.1721653789 0.1114011034 0.1114011034 0.1924201101 0.2329296470 0.2126749009 0.1924201101 0.1519106328 0.0708915740 -0.0303821638 0.0303821042 0.1316558421 0.1924201101 0.2329296470 0.1519106328 0.2936939001 0.3747129142 0.4557319283 0.4354771674 0.3747129142 0.1924201101 0.1316558421 0.1114011034 0.1114011034 0.2531844079 0.3342034221 0.4152224362 0.4759867191 0.4354771674 0.3544581831 0.3342034221 0.3544581831 0.3949676752 0.4152224362 0.4152224362 0.4152224362 0.3544581831 0.2531844079 0.2329296470 0.2329296470 0.2329296470 0.2126749009 0.1924201101 0.2126749009 0.2126749009 0.2531844079 0.2734391391 0.3139486611 0.2531844079 0.1519106328 0.1924201101 0.2936939001 0.2936939001 0.2936939001 0.2329296470 0.3139486611 0.3342034221 0.4152224362 0.5367509723 0.6177699566 0.4557319283 0.2531844079 -0.0101274280 -0.1316559613 -0.1519106925 -0.0101274280 0.0911463723 0.0911463723 0.1519106328 0.1316558421 0.2126749009 0.1721653789 0.1316558421 0.0506368391 -0.0303821638 -0.0101274280 0.0506368391 0.0303821042 0.0708915740 0.0911463723 0.0101273078 0.0303821042 -0.0101274280 -0.0101274280 -0.0303821638 -0.0911464319 -0.1114011630 -0.1316559613 -0.1316559613 0.0101273078 0.2329296470 0.4354771674 0.7392985225 1.0836293697 1.5089792013 1.9140741825 2.1976408958 2.5217170715 2.9065575600 3.4939453602 3.9800593853 4.4054088593 4.7699947357 4.8915233612 4.8105044365 4.4661731720 3.9395499229 3.0483405590 1.6507624388 0.2531844079 -0.6177700758 -1.0026104450 -1.3064316511 -1.3671958447 -1.2659221888 -1.0431197882 -0.8810818791 -0.7392986417 -0.7595533729 -0.8203175664 -0.7190439105 -0.7595533729 -0.8000628352 -0.8405722976 -0.9418461323 -0.9013366103 -0.9013366103 -0.9013366103 -0.9418461323 -0.9215914011 -0.8608271480 -0.8203175664 -0.8203175664 -0.8203175664 -0.7392986417 -0.6987890601 -0.6582795978 -0.6177700758 -0.6987890601 -0.8405722976 -0.8810818791 -0.8405722976 -0.7190439105 -0.5975153446 -0.6380248070 -0.8000628352 -0.8608271480 -0.9013366103 -0.8405722976 -0.8608271480 -0.8405722976 -0.8810818791 -0.8810818791 -0.8608271480 -0.8405722976 -0.8203175664 -0.8405722976 -0.8203175664 -0.8203175664 -0.8000628352 -0.7595533729 -0.6380248070 -0.6177700758 -0.6177700758 -0.5975153446 -0.5772604942 -0.6785343289 -0.7392986417 -0.6987890601 -0.6582795978 -0.6380248070 -0.6380248070 -0.7190439105 -0.6785343289 -0.6582795978 -0.6785343289 -0.6987890601 -0.6582795978 -0.6380248070 -0.6177700758 -0.6582795978 -0.7392986417 -0.6785343289 -0.6785343289 -0.6177700758 -0.5975153446 -0.5164963007 -0.4354772270 -0.4152224958 -0.3342034519 -0.3747130334 -0.3949677646 -0.4759868383 -0.4962415695 -0.4962415695 -0.4557319582 -0.4152224958 -0.4962415695 -0.5570057631 -0.5570057631 -0.4962415695 -0.3747130334 -0.3342034519 -0.3747130334 -0.4152224958 -0.3949677646 -0.3544583023 -0.3139486909 -0.2734392285 -0.2936939597 -0.2936939597 -0.3342034519 -0.3342034519 -0.2734392285 -0.3139486909 -0.2531844974 -0.3139486909 -0.4152224958 -0.4354772270 -0.4354772270 -0.3949677646 -0.4152224958 -0.4152224958 -0.3949677646 -0.5164963007 -0.5164963007 -0.4759868383 -0.4152224958 -0.3747130334 -0.4557319582
